#step,residue,       energy,           # of electrons
 0  0.000864303688 -140.265025095672 50.000000
 1  0.000432159198 -101.227805476713 50.000000
 2  0.000216083534 -81.709883739689 50.000000
 3  0.000108052245 -71.950813231369 50.000000
 4  0.000054058832 -67.071099458282 50.000000
 5  0.000027134041 -64.630967763448 50.000000
 6  0.000013897081 -63.410474094462 50.000000
 7  0.000007918795 -62.799557471375 50.000000
 8  0.000006206779 -62.493048765944 50.000000
 9  0.000006758421 -62.338148330551 50.000000
 10  0.000008250655 -62.258125750916 50.000000
 11  0.000010279597 -62.214115675023 50.000000
 12  0.000012817485 -62.185948225861 50.000000
 13  0.000015922940 -62.162497762613 50.000000
 14  0.000019655764 -62.136837036873 50.000000
 15  0.000024032887 -62.103942521542 50.000000
 16  0.000028979760 -62.059997212086 50.000000
 17  0.000034275566 -62.002987882466 50.000000
 18  0.000039517821 -61.934355055288 50.000000
 19  0.000044151922 -61.860837848046 50.000000
 20  0.000047595383 -61.794813527420 50.000000
 21  0.000049417787 -61.751712415356 50.000000
 22  0.000049473165 -61.745172529914 50.000000
 23  0.000047908707 -61.782615583169 50.000000
 24  0.000045069622 -61.863562960965 50.000000
 25  0.000041376169 -61.980902240696 50.000000
 26  0.000037229729 -62.123741972376 50.000000
 27  0.000032962380 -62.280334082884 50.000000
 28  0.000028820494 -62.440181280406 50.000000
 29  0.000024968498 -62.595123461932 50.000000
 30  0.000021502168 -62.739594665120 50.000000
 31  0.000018464773 -62.870366695551 50.000000
 32  0.000015862369 -62.986060840891 50.000000
 33  0.000013676475 -63.086618137745 50.000000
 34  0.000011873639 -63.172830677529 50.000000
 35  0.000010412137 -63.245973419284 50.000000
 36  0.000009246468 -63.307539118926 50.000000
 37  0.000008330406 -63.359061632606 50.000000
 38  0.000007619269 -63.402007477096 50.000000
 39  0.000007071751 -63.437716347895 50.000000
 40  0.000006651339 -63.467374642758 50.000000
 41  0.000006327168 -63.492009916200 50.000000
 42  0.000006074218 -63.512497678115 50.000000
 43  0.000005872950 -63.529574732828 50.000000
 44  0.000005708569 -63.543855319427 50.000000
 45  0.000005570146 -63.555847767815 50.000000
 46  0.000005449759 -63.565970366171 50.000000
 47  0.000005341751 -63.574565772768 50.000000
 48  0.000005242127 -63.581913702656 50.000000
 49  0.000005148096 -63.588241855831 50.000000
 50  0.000005057729 -63.593735184437 50.000000
 51  0.000004969711 -63.598543660922 50.000000
 52  0.000004883158 -63.602788733016 50.000000
 53  0.000004797494 -63.606568651872 50.000000
 54  0.000004712360 -63.609962847482 50.000000
 55  0.000004627547 -63.613035507388 50.000000
 56  0.000004542954 -63.615838494559 50.000000
 57  0.000004458552 -63.618413720572 50.000000
 58  0.000004374364 -63.620795071929 50.000000
 59  0.000004290447 -63.623009971108 50.000000
 60  0.000004206878 -63.625080639894 50.000000
 61  0.000004123749 -63.627025120538 50.000000
 62  0.000004041157 -63.628858100282 50.000000
 63  0.000003959203 -63.630591576399 50.000000
 64  0.000003877986 -63.632235392040 50.000000
 65  0.000003797600 -63.633797667471 50.000000
 66  0.000003718135 -63.635285146705 50.000000
 67  0.000003639676 -63.636703475719 50.000000
 68  0.000003562299 -63.638057425394 50.000000
 69  0.000003486074 -63.639351069836 50.000000
 70  0.000003411062 -63.640587928682 50.000000
 71  0.000003337317 -63.641771080392 50.000000
 72  0.000003264886 -63.642903252174 50.000000
 73  0.000003193810 -63.643986891125 50.000000
 74  0.000003124120 -63.645024220302 50.000000
 75  0.000003055844 -63.646017282714 50.000000
 76  0.000002989001 -63.646967975673 50.000000
 77  0.000002923605 -63.647878077461 50.000000
 78  0.000002859667 -63.648749267901 50.000000
 79  0.000002797190 -63.649583144121 50.000000
 80  0.000002736175 -63.650381232514 50.000000
 81  0.000002676618 -63.651144997759 50.000000
 82  0.000002618512 -63.651875849540 50.000000
 83  0.000002561845 -63.652575147502 50.000000
 84  0.000002506604 -63.653244204872 50.000000
 85  0.000002452774 -63.653884291075 50.000000
 86  0.000002400335 -63.654496633611 50.000000
 87  0.000002349269 -63.655082419398 50.000000
 88  0.000002299552 -63.655642795749 50.000000
 89  0.000002251163 -63.656178871094 50.000000
 90  0.000002204076 -63.656691715555 50.000000
 91  0.000002158266 -63.657182361439 50.000000
 92  0.000002113709 -63.657651803692 50.000000
 93  0.000002070376 -63.658101000367 50.000000
 94  0.000002028241 -63.658530873113 50.000000
 95  0.000001987277 -63.658942307722 50.000000
 96  0.000001947456 -63.659336154719 50.000000
 97  0.000001908751 -63.659713230017 50.000000
 98  0.000001871134 -63.660074315632 50.000000
 99  0.000001834578 -63.660420160450 50.000000
 100  0.000001799055 -63.660751481048 50.000000
 101  0.000001764539 -63.661068962563 50.000000
 102  0.000001731003 -63.661373259593 50.000000
 103  0.000001698421 -63.661664997135 50.000000
 104  0.000001666766 -63.661944771546 50.000000
 105  0.000001636013 -63.662213151522 50.000000
 106  0.000001606138 -63.662470679085 50.000000
 107  0.000001577115 -63.662717870584 50.000000
 108  0.000001548920 -63.662955217679 50.000000
 109  0.000001521529 -63.663183188340 50.000000
 110  0.000001494920 -63.663402227813 50.000000
 111  0.000001469070 -63.663612759594 50.000000
 112  0.000001443956 -63.663815186365 50.000000
 113  0.000001419558 -63.664009890925 50.000000
 114  0.000001395853 -63.664197237089 50.000000
 115  0.000001372821 -63.664377570561 50.000000
 116  0.000001350442 -63.664551219792 50.000000
 117  0.000001328697 -63.664718496791 50.000000
 118  0.000001307567 -63.664879697927 50.000000
 119  0.000001287031 -63.665035104687 50.000000
 120  0.000001267074 -63.665184984411 50.000000
 121  0.000001247676 -63.665329590999 50.000000
 122  0.000001228821 -63.665469165583 50.000000
 123  0.000001210492 -63.665603937172 50.000000
 124  0.000001192673 -63.665734123271 50.000000
 125  0.000001175347 -63.665859930470 50.000000
 126  0.000001158499 -63.665981555002 50.000000
 127  0.000001142115 -63.666099183282 50.000000
 128  0.000001126179 -63.666212992410 50.000000
 129  0.000001110677 -63.666323150659 50.000000
 130  0.000001095597 -63.666429817932 50.000000
 131  0.000001080923 -63.666533146199 50.000000
 132  0.000001066643 -63.666633279912 50.000000
 133  0.000001052745 -63.666730356391 50.000000
 134  0.000001039215 -63.666824506205 50.000000
 135  0.000001026043 -63.666915853519 50.000000
 136  0.000001013216 -63.667004516426 50.000000
 137  0.000001000723 -63.667090607270 50.000000
 138  0.000000988553 -63.667174232935 50.000000
 139  0.000000976696 -63.667255495140 50.000000
 140  0.000000965141 -63.667334490697 50.000000
 141  0.000000953878 -63.667411311767 50.000000
 142  0.000000942897 -63.667486046105 50.000000
 143  0.000000932189 -63.667558777279 50.000000
 144  0.000000921745 -63.667629584891 50.000000
 145  0.000000911555 -63.667698544775 50.000000
 146  0.000000901612 -63.667765729191 50.000000
 147  0.000000891907 -63.667831207010 50.000000
 148  0.000000882431 -63.667895043878 50.000000
 149  0.000000873177 -63.667957302387 50.000000
 150  0.000000864138 -63.668018042222 50.000000
 151  0.000000855305 -63.668077320311 50.000000
 152  0.000000846672 -63.668135190962 50.000000
 153  0.000000838233 -63.668191705989 50.000000
 154  0.000000829979 -63.668246914843 50.000000
 155  0.000000821905 -63.668300864723 50.000000
 156  0.000000814005 -63.668353600690 50.000000
 157  0.000000806272 -63.668405165769 50.000000
 158  0.000000798700 -63.668455601051 50.000000
 159  0.000000791285 -63.668504945787 50.000000
 160  0.000000784020 -63.668553237476 50.000000
 161  0.000000776901 -63.668600511951 50.000000
 162  0.000000769921 -63.668646803456 50.000000
 163  0.000000763077 -63.668692144729 50.000000
 164  0.000000756363 -63.668736567068 50.000000
 165  0.000000749775 -63.668780100402 50.000000
 166  0.000000743308 -63.668822773356 50.000000
 167  0.000000736959 -63.668864613313 50.000000
 168  0.000000730722 -63.668905646473 50.000000
 169  0.000000724595 -63.668945897909 50.000000
 170  0.000000718573 -63.668985391619 50.000000
 171  0.000000712652 -63.669024150576 50.000000
 172  0.000000706830 -63.669062196779 50.000000
 173  0.000000701102 -63.669099551296 50.000000
 174  0.000000695465 -63.669136234306 50.000000
 175  0.000000689916 -63.669172265145 50.000000
 176  0.000000684452 -63.669207662341 50.000000
 177  0.000000679071 -63.669242443654 50.000000
 178  0.000000673768 -63.669276626108 50.000000
 179  0.000000668542 -63.669310226030 50.000000
 180  0.000000663390 -63.669343259079 50.000000
 181  0.000000658309 -63.669375740275 50.000000
 182  0.000000653298 -63.669407684033 50.000000
 183  0.000000648352 -63.669439104188 50.000000
 184  0.000000643472 -63.669470014022 50.000000
 185  0.000000638653 -63.669500426288 50.000000
 186  0.000000633894 -63.669530353237 50.000000
 187  0.000000629194 -63.669559806640 50.000000
 188  0.000000624550 -63.669588797807 50.000000
 189  0.000000619961 -63.669617337612 50.000000
 190  0.000000615424 -63.669645436512 50.000000
 191  0.000000610938 -63.669673104564 50.000000
 192  0.000000606501 -63.669700351444 50.000000
 193  0.000000602113 -63.669727186468 50.000000
 194  0.000000597771 -63.669753618601 50.000000
 195  0.000000593473 -63.669779656481 50.000000
 196  0.000000589220 -63.669805308428 50.000000
 197  0.000000585008 -63.669830582461 50.000000
 198  0.000000580838 -63.669855486311 50.000000
 199  0.000000576707 -63.669880027435 50.000000
 200  0.000000572616 -63.669904213027 50.000000
 201  0.000000568562 -63.669928050030 50.000000
 202  0.000000564544 -63.669951545150 50.000000
 203  0.000000560562 -63.669974704864 50.000000
 204  0.000000556615 -63.669997535430 50.000000
 205  0.000000552701 -63.670020042900 50.000000
 206  0.000000548821 -63.670042233125 50.000000
 207  0.000000544972 -63.670064111769 50.000000
 208  0.000000541155 -63.670085684313 50.000000
 209  0.000000537367 -63.670106956066 50.000000
 210  0.000000533610 -63.670127932172 50.000000
 211  0.000000529882 -63.670148617618 50.000000
 212  0.000000526182 -63.670169017239 50.000000
 213  0.000000522510 -63.670189135728 50.000000
 214  0.000000518865 -63.670208977638 50.000000
 215  0.000000515246 -63.670228547394 50.000000
 216  0.000000511654 -63.670247849294 50.000000
 217  0.000000508087 -63.670266887517 50.000000
 218  0.000000504545 -63.670285666126 50.000000
 219  0.000000501027 -63.670304189078 50.000000
 220  0.000000497534 -63.670322460221 50.000000
 221  0.000000494064 -63.670340483308 50.000000
 222  0.000000490618 -63.670358261993 50.000000
 223  0.000000487194 -63.670375799841 50.000000
 224  0.000000483793 -63.670393100328 50.000000
 225  0.000000480414 -63.670410166847 50.000000
 226  0.000000477056 -63.670427002711 50.000000
 227  0.000000473720 -63.670443611159 50.000000
 228  0.000000470406 -63.670459995354 50.000000
 229  0.000000467112 -63.670476158388 50.000000
 230  0.000000463838 -63.670492103290 50.000000
 231  0.000000460585 -63.670507833022 50.000000
 232  0.000000457353 -63.670523350484 50.000000
 233  0.000000454139 -63.670538658518 50.000000
 234  0.000000450946 -63.670553759910 50.000000
 235  0.000000447772 -63.670568657390 50.000000
 236  0.000000444617 -63.670583353637 50.000000
 237  0.000000441481 -63.670597851281 50.000000
 238  0.000000438363 -63.670612152901 50.000000
 239  0.000000435265 -63.670626261033 50.000000
 240  0.000000432185 -63.670640178166 50.000000
 241  0.000000429123 -63.670653906748 50.000000
 242  0.000000426079 -63.670667449184 50.000000
 243  0.000000423053 -63.670680807842 50.000000
 244  0.000000420045 -63.670693985050 50.000000
 245  0.000000417055 -63.670706983099 50.000000
 246  0.000000414083 -63.670719804246 50.000000
 247  0.000000411127 -63.670732450712 50.000000
 248  0.000000408190 -63.670744924687 50.000000
 249  0.000000405269 -63.670757228326 50.000000
 250  0.000000402366 -63.670769363757 50.000000
 251  0.000000399479 -63.670781333073 50.000000
 252  0.000000396610 -63.670793138343 50.000000
 253  0.000000393757 -63.670804781605 50.000000
 254  0.000000390921 -63.670816264870 50.000000
 255  0.000000388102 -63.670827590123 50.000000
 256  0.000000385300 -63.670838759322 50.000000
 257  0.000000382513 -63.670849774403 50.000000
 258  0.000000379744 -63.670860637274 50.000000
 259  0.000000376990 -63.670871349822 50.000000
 260  0.000000374253 -63.670881913908 50.000000
 261  0.000000371533 -63.670892331374 50.000000
 262  0.000000368828 -63.670902604038 50.000000
 263  0.000000366139 -63.670912733695 50.000000
 264  0.000000363467 -63.670922722123 50.000000
 265  0.000000360810 -63.670932571075 50.000000
 266  0.000000358169 -63.670942282286 50.000000
 267  0.000000355544 -63.670951857473 50.000000
 268  0.000000352935 -63.670961298331 50.000000
 269  0.000000350342 -63.670970606535 50.000000
 270  0.000000347764 -63.670979783746 50.000000
 271  0.000000345202 -63.670988831603 50.000000
 272  0.000000342655 -63.670997751727 50.000000
 273  0.000000340124 -63.671006545724 50.000000
 274  0.000000337609 -63.671015215179 50.000000
 275  0.000000335109 -63.671023761663 50.000000
 276  0.000000332624 -63.671032186729 50.000000
 277  0.000000330154 -63.671040491912 50.000000
 278  0.000000327700 -63.671048678732 50.000000
 279  0.000000325261 -63.671056748694 50.000000
 280  0.000000322837 -63.671064703283 50.000000
 281  0.000000320428 -63.671072543973 50.000000
 282  0.000000318034 -63.671080272220 50.000000
 283  0.000000315656 -63.671087889463 50.000000
 284  0.000000313292 -63.671095397129 50.000000
 285  0.000000310943 -63.671102796627 50.000000
 286  0.000000308609 -63.671110089353 50.000000
 287  0.000000306290 -63.671117276688 50.000000
 288  0.000000303985 -63.671124359997 50.000000
 289  0.000000301695 -63.671131340633 50.000000
 290  0.000000299420 -63.671138219931 50.000000
 291  0.000000297160 -63.671144999215 50.000000
 292  0.000000294914 -63.671151679793 50.000000
 293  0.000000292682 -63.671158262961 50.000000
 294  0.000000290465 -63.671164749998 50.000000
 295  0.000000288263 -63.671171142172 50.000000
 296  0.000000286074 -63.671177440736 50.000000
 297  0.000000283900 -63.671183646930 50.000000
 298  0.000000281741 -63.671189761980 50.000000
 299  0.000000279595 -63.671195787100 50.000000
 300  0.000000277464 -63.671201723489 50.000000
 301  0.000000275347 -63.671207572334 50.000000
 302  0.000000273243 -63.671213334808 50.000000
 303  0.000000271154 -63.671219012072 50.000000
 304  0.000000269079 -63.671224605274 50.000000
 305  0.000000267018 -63.671230115550 50.000000
 306  0.000000264970 -63.671235544021 50.000000
 307  0.000000262936 -63.671240891797 50.000000
 308  0.000000260916 -63.671246159976 50.000000
 309  0.000000258910 -63.671251349642 50.000000
 310  0.000000256917 -63.671256461870 50.000000
 311  0.000000254938 -63.671261497718 50.000000
 312  0.000000252972 -63.671266458236 50.000000
 313  0.000000251019 -63.671271344460 50.000000
 314  0.000000249080 -63.671276157414 50.000000
 315  0.000000247155 -63.671280898110 50.000000
 316  0.000000245242 -63.671285567551 50.000000
 317  0.000000243343 -63.671290166724 50.000000
 318  0.000000241457 -63.671294696608 50.000000
 319  0.000000239584 -63.671299158168 50.000000
 320  0.000000237724 -63.671303552360 50.000000
 321  0.000000235877 -63.671307880126 50.000000
 322  0.000000234043 -63.671312142398 50.000000
 323  0.000000232222 -63.671316340098 50.000000
 324  0.000000230413 -63.671320474135 50.000000
 325  0.000000228617 -63.671324545409 50.000000
 326  0.000000226834 -63.671328554807 50.000000
 327  0.000000225064 -63.671332503206 50.000000
 328  0.000000223306 -63.671336391474 50.000000
 329  0.000000221560 -63.671340220465 50.000000
 330  0.000000219827 -63.671343991026 50.000000
 331  0.000000218107 -63.671347703991 50.000000
 332  0.000000216398 -63.671351360184 50.000000
 333  0.000000214702 -63.671354960421 50.000000
 334  0.000000213018 -63.671358505505 50.000000
 335  0.000000211346 -63.671361996229 50.000000
 336  0.000000209686 -63.671365433379 50.000000
 337  0.000000208038 -63.671368817728 50.000000
 338  0.000000206402 -63.671372150040 50.000000
 339  0.000000204778 -63.671375431070 50.000000
 340  0.000000203166 -63.671378661563 50.000000
 341  0.000000201565 -63.671381842254 50.000000
 342  0.000000199976 -63.671384973869 50.000000
 343  0.000000198398 -63.671388057124 50.000000
 344  0.000000196833 -63.671391092727 50.000000
 345  0.000000195278 -63.671394081375 50.000000
 346  0.000000193735 -63.671397023757 50.000000
 347  0.000000192203 -63.671399920554 50.000000
 348  0.000000190683 -63.671402772435 50.000000
 349  0.000000189174 -63.671405580064 50.000000
 350  0.000000187676 -63.671408344093 50.000000
 351  0.000000186189 -63.671411065166 50.000000
 352  0.000000184713 -63.671413743920 50.000000
 353  0.000000183247 -63.671416380983 50.000000
 354  0.000000181793 -63.671418976973 50.000000
 355  0.000000180350 -63.671421532501 50.000000
 356  0.000000178917 -63.671424048171 50.000000
 357  0.000000177495 -63.671426524575 50.000000
 358  0.000000176084 -63.671428962300 50.000000
 359  0.000000174683 -63.671431361926 50.000000
 360  0.000000173293 -63.671433724022 50.000000
 361  0.000000171913 -63.671436049150 50.000000
 362  0.000000170544 -63.671438337867 50.000000
 363  0.000000169185 -63.671440590719 50.000000
 364  0.000000167836 -63.671442808246 50.000000
 365  0.000000166497 -63.671444990980 50.000000
 366  0.000000165169 -63.671447139447 50.000000
 367  0.000000163850 -63.671449254163 50.000000
 368  0.000000162541 -63.671451335640 50.000000
 369  0.000000161243 -63.671453384380 50.000000
 370  0.000000159954 -63.671455400881 50.000000
 371  0.000000158675 -63.671457385630 50.000000
 372  0.000000157406 -63.671459339111 50.000000
 373  0.000000156146 -63.671461261799 50.000000
 374  0.000000154896 -63.671463154163 50.000000
 375  0.000000153656 -63.671465016666 50.000000
 376  0.000000152425 -63.671466849762 50.000000
 377  0.000000151203 -63.671468653901 50.000000
 378  0.000000149991 -63.671470429527 50.000000
 379  0.000000148788 -63.671472177074 50.000000
 380  0.000000147595 -63.671473896975 50.000000
 381  0.000000146410 -63.671475589652 50.000000
 382  0.000000145235 -63.671477255523 50.000000
 383  0.000000144068 -63.671478895001 50.000000
 384  0.000000142911 -63.671480508492 50.000000
 385  0.000000141763 -63.671482096395 50.000000
 386  0.000000140623 -63.671483659104 50.000000
 387  0.000000139492 -63.671485197009 50.000000
 388  0.000000138370 -63.671486710493 50.000000
 389  0.000000137257 -63.671488199932 50.000000
 390  0.000000136153 -63.671489665698 50.000000
 391  0.000000135057 -63.671491108159 50.000000
 392  0.000000133969 -63.671492527674 50.000000
 393  0.000000132890 -63.671493924599 50.000000
 394  0.000000131819 -63.671495299286 50.000000
 395  0.000000130757 -63.671496652080 50.000000
 396  0.000000129703 -63.671497983319 50.000000
 397  0.000000128657 -63.671499293341 50.000000
 398  0.000000127619 -63.671500582475 50.000000
 399  0.000000126589 -63.671501851046 50.000000
 400  0.000000125568 -63.671503099375 50.000000
 401  0.000000124554 -63.671504327778 50.000000
 402  0.000000123549 -63.671505536566 50.000000
 403  0.000000122551 -63.671506726045 50.000000
 404  0.000000121561 -63.671507896516 50.000000
 405  0.000000120579 -63.671509048278 50.000000
 406  0.000000119604 -63.671510181624 50.000000
 407  0.000000118637 -63.671511296841 50.000000
 408  0.000000117678 -63.671512394214 50.000000
 409  0.000000116727 -63.671513474022 50.000000
 410  0.000000115782 -63.671514536542 50.000000
 411  0.000000114846 -63.671515582045 50.000000
 412  0.000000113916 -63.671516610798 50.000000
 413  0.000000112994 -63.671517623064 50.000000
 414  0.000000112079 -63.671518619104 50.000000
 415  0.000000111172 -63.671519599172 50.000000
 416  0.000000110272 -63.671520563520 50.000000
